# filter: J
# instrument: 2MASS
# xtype: wavelength
# comment: passband bandwidth: 0.162 micron
# comment: Cohen (2003) bandwidth: 0.162 micron
# comment: Vega (Cohen, 1992) in inband flux: 5.074e-10 W / m2
# comment: Cohen (2003) inband flux: 5.082e-10 W / m2
# description: Full system RSR (atmosphere, telescope, instrument)
# system: Vega
# reference: Cohen et al., 2003, AJ 126, 1090
# xref: 1.235 micron
# ytype: rsr
# url: http://www.ipac.caltech.edu/2mass/releases/allsky/doc/sec6_4a.html
# file: J.2MASS.pb
# xunit: micron
 1.062000    0.000000
 1.066000    0.000407
 1.070000    0.001543
 1.075000    0.002670
 1.078000    0.005506
 1.082000    0.012253
 1.084000    0.020293
 1.087000    0.030647
 1.089000    0.040514
 1.093000    0.051532
 1.096000    0.056353
 1.102000    0.071807
 1.105000    0.273603
 1.107000    0.340997
 1.109000    0.358446
 1.112000    0.380134
 1.116000    0.330668
 1.117000    0.239548
 1.120000    0.250062
 1.123000    0.283301
 1.128000    0.258233
 1.129000    0.251474
 1.132000    0.538119
 1.134000    0.223168
 1.138000    0.536893
 1.140000    0.110203
 1.143000    0.529207
 1.147000    0.261940
 1.154000    0.320155
 1.159000    0.174300
 1.164000    0.607031
 1.167000    0.617933
 1.170000    0.676289
 1.173000    0.727940
 1.175000    0.746531
 1.179000    0.830404
 1.182000    0.790307
 1.186000    0.809605
 1.188000    0.836888
 1.192000    0.835984
 1.195000    0.749936
 1.199000    0.708013
 1.202000    0.698759
 1.209000    0.704854
 1.216000    0.700382
 1.221000    0.732765
 1.227000    0.705725
 1.231000    0.842431
 1.236000    0.921873
 1.240000    0.952505
 1.244000    0.967585
 1.247000    0.959508
 1.253000    0.922697
 1.255000    0.892978
 1.258000    0.852943
 1.260000    0.802308
 1.265000    0.750078
 1.270000    0.678072
 1.275000    0.652417
 1.279000    0.638754
 1.286000    0.642413
 1.292000    0.648560
 1.297000    0.682380
 1.302000    0.752903
 1.305000    0.775942
 1.307000    0.811828
 1.310000    0.777008
 1.313000    0.721030
 1.316000    0.952459
 1.319000    0.855137
 1.323000    0.841401
 1.326000    1.000000
 1.330000    0.894736
 1.333000    0.854912
 1.334000    0.537894
 1.336000    0.279866
 1.339000    0.906532
 1.343000    0.689345
 1.346000    0.553327
 1.349000    0.243177
 1.353000    0.014376
 1.355000    0.000189
 1.360000    0.040079
 1.363000    0.004536
 1.370000    0.000320
 1.373000    0.037217
 1.377000    0.000538
 1.383000    0.000000
 1.388000    0.000144
 1.392000    0.003298
 1.395000    0.000314
 1.396000    0.008477
 1.397000    0.025373
 1.398000    0.118446
 1.400000    0.000136
 1.401000    0.000061
 1.402000    0.052133
 1.404000    0.010377
 1.406000    0.047805
 1.407000    0.000420
 1.410000    0.002366
 1.412000    0.005261
 1.416000    0.008648
 1.421000    0.000729
 1.426000    0.000348
 1.442000    0.000378
 1.450000    0.000000
